0.109467456,0.11760355,0.128698225,0.142011834,0.153106509,0.161982249,0.170118343,0.176035503,0.181213018,0.184911243,0.187130178,0.190828402,0.193786982,0.196005917,0.198224852,0.198964497,0.197485207,0.194526627,0.190088757,0.184171598,0.177514793,0.167159763,0.148668639,0.133136095,0.116863905,0.101331361,0.085059172,0.072485207,0.061390533,0.049556213,0.036982249,0.025887574,0.016272189,0.00739645,0,-0.00739645,-0.012573964,-0.017751479,-0.022189349,-0.026627219,-0.031065089,-0.036982249,-0.042899408,-0.048816568,-0.054733728,-0.059911243,-0.064349112,-0.069526627,-0.073964497,-0.077662722,-0.080621302,-0.082100592,-0.082840237,-0.081360947,-0.077662722,-0.072485207,-0.067307692,-0.061390533,-0.056213018,-0.052514793,-0.049556213,-0.045857988,-0.042899408,-0.039940828,-0.037721893,-0.034763314,-0.032544379,-0.030325444,-0.027366864,-0.025147929,-0.022189349,-0.020710059,-0.018491124,-0.017751479,-0.016272189,-0.015532544,-0.014792899,-0.014053254,-0.014053254,-0.014053254,-0.014792899,-0.015532544,-0.016272189,-0.017011834,-0.018491124,-0.019970414,-0.021449704,-0.022928994,-0.025147929,-0.026627219,-0.028846154,-0.031065089,-0.034023669,-0.036242604,-0.038461538,-0.039940828,-0.042159763,-0.044378698,-0.045857988,-0.048076923,-0.049556213,-0.051775148,-0.053994083,-0.056952663,-0.059911243,-0.062869822,-0.065088757,-0.068047337,-0.070266272,-0.071745562,-0.073224852,-0.074704142,-0.074704142,-0.074704142,-0.073964497,-0.072485207,-0.071005917,-0.069526627,-0.067307692,-0.065828402,-0.063609467,-0.061390533,-0.058431953,-0.055473373,-0.052514793,-0.048816568,-0.045118343,-0.039940828,-0.031065089,-0.020710059,-0.012573964,-0.008136095,-0.003698225,-0.000739645,0.000739645,0.002218935,0.003698225,0.00443787,0.005177515,0.00591716,0.00591716,0.005177515,0.005177515,0.00443787,0.00443787,0.005177515,0.005177515,0.005177515,0.00443787,0.003698225,0.003698225,0.003698225,0.003698225,0.00443787,0.00591716,0.00739645,0.017011834,0.063609467,0.134615385,0.232988166,0.359467456,0.50443787,0.654585799,0.786982249,0.86908284,0.87795858,0.836538462,0.704881657,0.522928994,0.333579882,0.180473373,0.085798817,0.048816568,0.036982249,0.025147929,0.012573964,-0.00739645,-0.037721893,-0.063609467,-0.079881657,-0.082100592,-0.082840237,-0.083579882,-0.084319527,-0.082840237,-0.075443787,-0.066568047,-0.059171598,-0.052514793,-0.045118343,-0.036982249,-0.025887574,-0.016272189,-0.011094675,-0.006656805,-0.003698225,-0.00147929,0,0.00147929,0.002218935,0.003698225,0.00443787,0.005177515,0.00591716,0.00739645,0.008136095,0.00887574,0.00887574,0.009615385,0.009615385,0.009615385,0.009615385,0.01035503,0.01035503,0.011094675,0.01183432,0.012573964,0.014053254,0.015532544,0.018491124,0.023668639,0.030325444,0.036242604,0.043639053,0.050295858,0.055473373,0.060650888,0.065088757,0.070266272,0.075443787,0.080621302,0.086538462,0.092455621,0.099112426,0.107988166,0.121301775,0.133136095,0.142751479,0.148668639,0.153106509,0.157544379,0.161242604,0.163461538,0.164201183,0.163461538,0.161242604,0.156804734,0.151627219,0.145710059,0.138313609,0.125739645,0.115384615,0.107248521,0.099112426,0.090976331,0.082100592,0.072485207,0.064349112,0.056952663,0.049556213,0.043639053,0.037721893,0.031065089,0.023668639,0.015532544,0.00739645,0.000739645,-0.00443787,-0.009615385,-0.014792899,-0.020710059,-0.025887574,-0.030325444,-0.035502959,-0.039201183,-0.042899408,-0.045857988,-0.048076923,-0.050295858,-0.052514793,-0.054733728,-0.055473373,-0.056952663,-0.058431953,-0.059171598,-0.059911243,-0.060650888,-0.060650888,-0.060650888,-0.060650888,-0.060650888,-0.059911243,-0.059911243,-0.059911243,-0.059171598,-0.059171598,-0.058431953,-0.058431953,-0.057692308,-0.056952663,-0.056213018,-0.055473373,-0.054733728,-0.053994083,-0.053254438,-0.052514793,-0.052514793,-0.051775148,-0.052514793,-0.053254438,-0.054733728,-0.055473373,-0.056213018,-0.056952663,-0.057692308,-0.058431953,-0.058431953,-0.059171598,-0.059171598,-0.059911243,-0.059911243,-0.062130178,-0.064349112,-0.065828402,-0.065828402,-0.062130178,-0.056213018,-0.051775148,-0.048816568,-0.046597633,-0.044378698,-0.041420118,-0.039201183,-0.036982249,-0.034763314,-0.033284024,-0.032544379,-0.031804734,-0.031065089,-0.031065089,-0.031065089,-0.031804734,-0.032544379,-0.034023669,-0.035502959,-0.037721893,-0.039201183,-0.040680473,-0.041420118,-0.042899408,-0.043639053,-0.045118343,-0.045857988,-0.048076923,-0.051775148,-0.055473373,-0.056952663,-0.055473373,-0.051775148,-0.048816568,-0.046597633,-0.045118343,-0.043639053,-0.042159763,-0.040680473,-0.039201183,-0.039201183,-0.038461538,-0.039201183,-0.039201183,-0.039940828,-0.041420118,-0.042899408,-0.044378698,-0.046597633,-0.048076923,-0.049556213,-0.051775148,-0.054733728,-0.056213018,-0.057692308,-0.057692308,-0.056213018,-0.053254438,-0.049556213,-0.044378698,-0.039201183,-0.033284024,-0.025147929,-0.017751479,-0.011094675,-0.00591716,-0.00295858,-0.00147929,0,0,0.000739645,0.00147929,0.002218935,0.00295858,0.00295858,0.003698225,0.003698225,0.003698225,0.00443787,0.005177515,0.005177515,0.00591716,0.00591716,0.00591716,0.006656805,0.00739645,0.00887574,0.01035503,0.012573964,0.014792899,0.017751479,0.036982249,0.073964497,0.134615385,0.224852071,0.346153846,0.493343195,0.651627219,0.798816568,0.904585799,0.935650888,0.877218935,0.73816568,0.545857988,0.343195266,0.173816568,0.067307692,0.037721893,0.029585799,0.024408284,0.017751479,0.012573964,0.00591716,-0.00739645,-0.024408284,-0.031065089,-0.035502959,-0.038461538,-0.036982249,-0.028846154,-0.019970414,-0.015532544,-0.012573964,-0.01035503,-0.00887574,-0.006656805,-0.00443787,-0.00295858,-0.000739645,0.000739645,0.002218935,0.003698225,0.005177515,0.006656805,0.008136095,0.00887574,0.009615385,0.011094675,0.012573964,0.015532544,0.019230769,0.022189349,0.025147929,0.028106509,0.029585799,0.031065089,0.033284024,0.034763314,0.035502959,0.036982249,0.037721893,0.038461538,0.039940828,0.041420118,0.042159763,0.042899408,0.044378698,0.045118343,0.047337278,0.048816568,0.051775148,0.053994083,0.056952663,0.060650888,0.066568047,0.073224852,0.079881657,0.085059172,0.090976331,0.099112426,0.110946746,0.12056213,0.12795858,0.13387574,0.139792899,0.147189349,0.154585799,0.160502959,0.166420118,0.171597633,0.175295858,0.177514793,0.178994083,0.179733728,0.181213018,0.184911243,0.188609467,0.181952663,0.170857988,0.157544379,0.147189349,0.139053254,0.13091716,0.121301775,0.106508876,0.088757396,0.071745562,0.057692308,0.048076923,0.039940828,0.030325444,0.017011834,0.005177515,-0.00295858,-0.01183432,-0.019230769,-0.025147929,-0.033284024,-0.042159763,-0.047337278,-0.051035503,-0.053994083,-0.056952663,-0.059171598,-0.061390533,-0.062869822,-0.065088757,-0.066568047,-0.068047337,-0.068786982,-0.070266272,-0.071005917,-0.071745562,-0.073224852,-0.073964497,-0.074704142,-0.075443787,-0.076183432,-0.076923077,-0.076923077,-0.076923077,-0.076923077,-0.076183432,-0.074704142,-0.072485207,-0.071005917,-0.068786982,-0.066568047,-0.064349112,-0.061390533,-0.057692308,-0.053994083,-0.050295858,-0.046597633,-0.042899408,-0.037721893,-0.031065089,-0.023668639,-0.016272189,-0.00887574,-0.002218935,0.003698225,0.009615385,0.016272189,0.022928994,0.027366864,0.031065089,0.033284024,0.035502959,0.036982249,0.038461538,0.038461538,0.036242604,0.032544379,0.027366864,0.018491124,0.00295858,-0.00887574,-0.018491124,-0.029585799,-0.036242604,-0.040680473,-0.044378698,-0.047337278,-0.050295858,-0.053994083,-0.056952663,-0.059171598,-0.061390533,-0.062869822,-0.064349112,-0.065828402,-0.066568047,-0.068047337,-0.069526627,-0.071005917,-0.071745562,-0.073224852,-0.073964497,-0.075443787,-0.076923077,-0.077662722,-0.078402367,-0.079142012,-0.079881657,-0.081360947,-0.082840237,-0.084319527,-0.086538462,-0.087278107,-0.087278107,-0.085798817,-0.082840237,-0.079142012,-0.074704142,-0.068786982,-0.059911243,-0.051775148,-0.043639053,-0.034023669,-0.023668639,-0.016272189,-0.00887574,-0.002218935,0.00295858,0.005177515,0.006656805,0.008136095,0.00887574,0.01035503,0.01035503,0.01035503,0.01035503,0.009615385,0.00887574,0.00739645,0.005177515,0.00295858,0,-0.00295858,-0.005177515,-0.00739645,-0.00887574,-0.011094675,-0.012573964,-0.014053254,-0.015532544,-0.017011834,-0.018491124,-0.019230769,-0.020710059,-0.022928994,-0.024408284,-0.025147929,-0.026627219,-0.027366864,-0.028106509,-0.029585799,-0.031065089,-0.032544379,-0.034023669,-0.036242604,-0.039940828,-0.043639053,-0.046597633,-0.046597633,-0.044378698,-0.039940828,-0.034763314,-0.028106509,-0.017751479,-0.00887574,-0.000739645,0.005177515,0.012573964,0.019970414,0.023668639,0.026627219,0.028846154,0.031065089,0.032544379,0.033284024,0.034023669,0.034023669,0.034023669,0.033284024,0.032544379,0.031804734,0.030325444,0.029585799,0.027366864,0.024408284,0.032544379,0.057692308,0.103550296,0.178254438,0.285502959,0.423076923,0.582100592,0.74260355,0.878698225,0.946005917,0.946005917,0.87795858,0.720414201,0.525887574,0.338757396,0.197485207,0.11760355,0.092455621,0.082100592,0.074704142,0.055473373,0.024408284,-0.003698225,-0.028846154,-0.044378698,-0.055473373,-0.062869822,-0.065828402,-0.063609467,-0.057692308,-0.048816568,-0.031804734,-0.021449704,-0.017011834,-0.014053254,-0.011094675,-0.00887574,-0.00739645,-0.00591716,-0.005177515,-0.00443787,-0.003698225,-0.00295858,-0.00295858,-0.002218935,-0.00147929,-0.00147929,-0.000739645,0,0,0,0.00147929,0.002218935,0.003698225,0.00591716,0.00887574,0.01183432,0.015532544,0.021449704,0.034023669,0.042159763,0.048076923,0.053254438,0.058431953,0.063609467,0.068786982,0.072485207,0.075443787,0.077662722,0.079881657,0.081360947,0.082840237,0.085059172,0.086538462,0.088017751,0.090236686,0.093195266,0.100591716,0.11316568,0.121301775,0.12647929,0.133136095,0.140532544,0.148668639,0.158284024,0.167899408,0.173816568,0.177514793,0.181213018,0.183431953,0.184911243,0.184171598,0.183431953,0.181213018,0.178254438,0.175295858,0.171597633,0.165680473,0.158284024,0.147928994,0.131656805,0.110946746,0.094674556,0.082840237,0.072485207,0.059911243,0.043639053,0.028846154,0.018491124,0.01035503,0.00295858,-0.002218935,-0.009615385,-0.020710059,-0.028846154,-0.035502959,-0.041420118,-0.045857988,-0.050295858,-0.053254438,-0.055473373,-0.056952663,-0.058431953,-0.059911243,-0.061390533,-0.062869822,-0.064349112,-0.065088757,-0.066568047,-0.067307692,-0.068047337,-0.069526627,-0.069526627,-0.069526627,-0.070266272,-0.070266272,-0.070266272,-0.071005917,-0.071745562,-0.072485207,-0.073224852,-0.073224852,-0.074704142,-0.076923077,-0.075443787,-0.065828402,-0.058431953,-0.051775148,-0.045857988,-0.039940828,-0.034023669,-0.028846154,-0.025147929,-0.021449704,-0.018491124,-0.016272189,-0.014053254,-0.013313609,-0.012573964,-0.013313609,-0.014792899,-0.017011834,-0.019970414,-0.022928994,-0.026627219,-0.029585799,-0.031804734,-0.033284024,-0.035502959,-0.036982249,-0.038461538,-0.039940828,-0.042159763,-0.043639053,-0.045118343,-0.047337278,-0.048816568,-0.050295858,-0.051035503,-0.051775148,-0.052514793,-0.053254438,-0.054733728,-0.056213018,-0.057692308,-0.059911243,-0.062130178,-0.065828402,-0.073964497,-0.081360947,-0.088017751,-0.092455621,-0.096153846,-0.099852071,-0.102071006,-0.103550296,-0.102810651,-0.100591716,-0.096153846,-0.090236686,-0.082840237,-0.070266272,-0.060650888,-0.053994083,-0.048816568,-0.044378698,-0.039201183,-0.031804734,-0.025887574,-0.023668639,-0.021449704,-0.019230769,-0.017751479,-0.015532544,-0.014053254,-0.01183432,-0.01035503,-0.00887574,-0.006656805,-0.005177515,-0.003698225,-0.00295858,-0.002218935,-0.002218935,-0.00147929,-0.00147929,-0.00147929,-0.00147929,-0.002218935,-0.002218935,-0.00295858,-0.003698225,-0.00443787,-0.005177515,-0.006656805,-0.008136095,-0.009615385,-0.01183432,-0.014053254,-0.015532544,-0.017011834,-0.019230769,-0.020710059,-0.022189349,-0.024408284,-0.026627219,-0.028846154,-0.031804734,-0.034023669,-0.036982249,-0.039201183,-0.041420118,-0.042899408,-0.044378698,-0.045118343,-0.046597633,-0.048076923,-0.049556213,-0.052514793,-0.059171598,-0.062130178,-0.057692308,-0.048076923,-0.020710059,0.034763314,0.12204142,0.24408284,0.396449704,0.567307692,0.73964497,0.88683432,0.957100592,0.955621302,0.877218935,0.706360947,0.49704142,0.300295858,0.156804734,0.102810651,0.085798817,0.076183432,0.071005917,0.066568047,0.049556213,0.015532544,-0.006656805,-0.021449704,-0.028846154,-0.034763314,-0.038461538,-0.039940828,-0.040680473,-0.041420118,-0.042899408,-0.043639053,-0.044378698,-0.044378698,-0.045118343,-0.045118343,-0.045118343,-0.045857988,-0.045857988,-0.045857988,-0.045857988,-0.045857988,-0.045857988,-0.045118343,-0.044378698,-0.043639053,-0.042159763,-0.040680473,-0.039201183,-0.036982249,-0.035502959,-0.032544379,-0.030325444,-0.027366864,-0.023668639,-0.014792899,-0.006656805,0,0.009615385,0.020710059,0.033284024,0.044378698,0.053254438,0.061390533,0.068786982,0.080621302,0.096893491,0.11316568,0.13091716,0.147189349,0.159023669,0.170118343,0.179733728,0.187869822,0.194526627,0.199704142,0.202662722,0.204142012,0.206360947,0.208579882,0.209319527,0.210798817,0.210798817,0.211538462,0.211538462,0.211538462,0.210059172,0.209319527,0.207100592,0.204142012,0.200443787,0.196745562,0.187869822,0.171597633,0.156065089,0.139053254,0.119822485,0.101331361,0.082840237,0.063609467,0.043639053,0.025147929,0.01035503,0,-0.014792899,-0.024408284,-0.031065089,-0.036982249,-0.040680473,-0.042899408,-0.045118343,-0.046597633,-0.047337278,-0.048076923,-0.048816568,-0.048816568,-0.049556213,-0.050295858,-0.051035503,-0.051035503,-0.051035503,-0.051035503,-0.050295858,-0.049556213,-0.049556213,-0.048816568,-0.048076923,-0.047337278,-0.046597633,-0.045857988,-0.045118343,-0.045118343,-0.045118343,-0.045118343,-0.045118343,-0.045118343,-0.045118343,-0.045118343,-0.045118343,-0.045857988,-0.046597633,-0.047337278,-0.048076923,-0.049556213,-0.051035503,-0.052514793,-0.054733728,-0.056213018,-0.057692308,-0.059171598,-0.061390533,-0.064349112,-0.068786982,-0.071745562,-0.073964497,-0.073964497,-0.071005917,-0.065828402,-0.059911243,-0.053994083,-0.049556213,-0.043639053,-0.037721893,-0.032544379,-0.028106509,-0.025147929,-0.023668639,-0.022189349,-0.020710059,-0.019970414,-0.019230769,-0.018491124,-0.017751479,-0.017751479,-0.017011834,-0.017011834,-0.016272189,-0.016272189,-0.016272189,-0.016272189,-0.016272189,-0.016272189,-0.016272189,-0.017011834,-0.018491124,-0.019970414,-0.021449704,-0.022928994,-0.024408284,-0.025887574,-0.028846154,-0.031065089,-0.033284024,-0.036242604,-0.038461538,-0.042899408,-0.047337278,-0.051775148,-0.054733728,-0.056213018,-0.057692308,-0.058431953,-0.059171598,-0.059911243,-0.061390533,-0.062130178,-0.062130178,-0.062130178,-0.062130178,-0.061390533,-0.059171598,-0.056213018,-0.052514793,-0.047337278,-0.042899408,-0.038461538,-0.035502959,-0.032544379,-0.030325444,-0.028846154,-0.026627219,-0.024408284,-0.023668639,-0.022189349,-0.022189349,-0.021449704,-0.021449704,-0.021449704,-0.020710059,-0.020710059,-0.020710059,-0.020710059,-0.020710059,-0.020710059,-0.019970414,-0.019970414,-0.019970414,-0.019970414,-0.019970414,-0.019970414,-0.019970414,-0.019970414,-0.019230769,-0.018491124,-0.018491124,-0.017751479,-0.016272189,-0.014053254,-0.01183432,-0.011094675,-0.012573964,-0.017751479,-0.022928994,-0.028106509,-0.031804734,-0.034763314,-0.037721893,-0.040680473,-0.043639053,-0.046597633,-0.048076923,-0.049556213,-0.050295858,-0.050295858,-0.050295858,-0.049556213,-0.048076923,-0.046597633,-0.044378698,-0.042159763,-0.039201183,-0.036242604,-0.032544379,-0.027366864,-0.021449704,-0.015532544,-0.00887574,-0.002218935,0.00443787,0.01183432,0.018491124,0.023668639,0.027366864,0.028846154,0.030325444,0.031065089,0.032544379,0.034023669,0.034763314,0.035502959,0.036242604,0.036982249,0.037721893,0.038461538,0.038461538,0.039201183,0.038461538,0.038461538,0.037721893,0.037721893,0.036982249,0.036242604,0.034763314,0.033284024,0.032544379,0.031065089,0.030325444,0.028106509,0.026627219,0.024408284,0.022189349,0.019970414,0.017751479,0.014792899,0.00887574,0.00147929,-0.003698225,-0.00887574,-0.014053254,-0.019970414,-0.027366864,-0.031804734,-0.028846154,-0.021449704,0,0.048076923,0.122781065,0.224852071,0.355769231,0.50887574,0.671597633,0.823964497,0.934911243,0.968934911,0.911242604,0.769230769,0.574704142,0.378698225,0.224112426,0.131656805,0.11612426,0.111686391,0.107248521,0.100591716,0.092455621,0.082100592,0.069526627,0.059171598,0.047337278,0.025147929,0.011094675,0.005177515,0.000739645,-0.00147929,-0.00443787,-0.00739645,-0.009615385,-0.011094675,-0.012573964,-0.014053254,-0.015532544,-0.017011834,-0.017751479,-0.019230769,-0.019970414,-0.020710059,-0.021449704,-0.021449704,-0.022189349,-0.022928994,-0.022928994,-0.022928994,-0.021449704,-0.019970414,-0.017011834,-0.014053254,-0.011094675,-0.00739645,-0.00443787,-0.000739645,0.002218935,0.006656805,0.011094675,0.014792899,0.019230769,0.023668639,0.028106509,0.032544379,0.038461538,0.044378698,0.050295858,0.056213018,0.060650888,0.064349112,0.068786982,0.073964497,0.079881657,0.086538462,0.093934911,0.101331361,0.110207101,0.119822485,0.130177515,0.140532544,0.150147929,0.160502959,0.168639053,0.176035503,0.180473373,0.184171598,0.187869822,0.190088757,0.192307692,0.192307692,0.192307692,0.190088757,0.186390533,0.182692308,0.178254438,0.172337278,0.163461538,0.153846154,0.144230769,0.13239645,0.118343195,0.104289941,0.090976331,0.078402367,0.065088757,0.051775148,0.037721893,0.025887574,0.015532544,0.006656805,-0.002218935,-0.01183432,-0.022928994,-0.036982249,-0.054733728,-0.062130178,-0.066568047,-0.071005917,-0.074704142,-0.078402367,-0.080621302,-0.082840237,-0.084319527,-0.085798817,-0.085798817,-0.085798817,-0.085059172,-0.083579882,-0.081360947,-0.079142012,-0.076183432,-0.072485207,-0.069526627,-0.065828402,-0.062869822,-0.059911243,-0.056952663,-0.052514793,-0.048076923,-0.044378698,-0.039940828,-0.036242604,-0.032544379,-0.028846154,-0.025147929,-0.021449704,-0.018491124,-0.015532544,-0.013313609,-0.01035503,-0.00739645,-0.00443787,-0.00295858,-0.00147929,-0.000739645,-0.000739645,-0.00147929,-0.00295858,-0.00443787,-0.006656805,-0.00887574,-0.01183432,-0.014792899,-0.017751479,-0.020710059,-0.024408284,-0.028106509,-0.032544379,-0.037721893,-0.042159763,-0.046597633,-0.051035503,-0.055473373,-0.059911243,-0.062869822,-0.065828402,-0.068786982,-0.071005917,-0.073964497,-0.076183432,-0.079142012,-0.082100592,-0.085059172,-0.087278107,-0.088757396,-0.090236686,-0.090976331,-0.090236686,-0.089497041,-0.088017751,-0.086538462,-0.084319527,-0.082100592,-0.079881657,-0.076923077,-0.074704142,-0.071745562,-0.068786982,-0.065828402,-0.061390533,-0.056213018,-0.050295858,-0.044378698,-0.039940828,-0.035502959,-0.030325444,-0.025887574,-0.021449704,-0.017751479,-0.014053254,-0.011094675,-0.009615385,-0.008136095,-0.006656805,-0.00591716,-0.005177515,-0.003698225,-0.00295858,-0.00147929,0,0.00147929,0.00443787,0.00887574,0.014792899,0.024408284,0.058431953,0.125,0.221153846,0.349852071,0.502218935,0.664201183,0.811390533,0.908284024,0.920118343,0.881656805,0.74408284,0.554733728,0.353550296,0.181213018,0.066568047,0.032544379,0.022928994,0.015532544,0.00739645,-0.000739645,-0.018491124,-0.043639053,-0.054733728,-0.059171598,-0.063609467,-0.067307692,-0.071005917,-0.072485207,-0.074704142,-0.076183432,-0.077662722,-0.078402367,-0.077662722,-0.077662722,-0.076183432,-0.073964497,-0.071745562,-0.068786982,-0.065088757,-0.061390533,-0.057692308,-0.053994083,-0.047337278,-0.032544379,-0.021449704,-0.014053254,-0.00887574,-0.005177515,-0.00147929,0.000739645,0.00443787,0.00887574,0.014053254,0.019230769,0.024408284,0.029585799,0.034763314,0.040680473,0.046597633,0.052514793,0.056952663,0.059911243,0.062130178,0.064349112,0.068047337,0.073964497,0.084319527,0.098372781,0.109467456,0.11760355,0.125739645,0.13387574,0.142011834,0.150147929,0.159023669,0.166420118,0.173816568,0.179733728,0.184171598,0.187869822,0.190828402,0.193786982,0.196005917,0.197485207,0.198224852,0.197485207,0.195266272,0.192307692,0.188609467,0.183431953,0.177514793,0.167899408,0.150147929,0.13683432,0.122781065,0.109467456,0.095414201,0.081360947,0.067307692,0.055473373,0.045857988,0.037721893,0.028846154,0.019230769,0.01035503,0.000739645,-0.00739645,-0.014792899,-0.022928994,-0.031065089,-0.040680473,-0.052514793,-0.056952663,-0.059171598,-0.061390533,-0.063609467,-0.065828402,-0.068047337,-0.069526627,-0.070266272,-0.071745562,-0.072485207,-0.073224852,-0.073224852,-0.073224852,-0.073224852,-0.072485207,-0.072485207,-0.072485207,-0.072485207,-0.071745562,-0.071005917,-0.071005917,-0.070266272,-0.069526627,-0.069526627,-0.068786982,-0.068786982,-0.068047337,-0.068047337,-0.068786982,-0.068786982,-0.069526627,-0.070266272,-0.070266272,-0.071005917,-0.071005917,-0.071005917,-0.071005917,-0.070266272,-0.070266272,-0.069526627,-0.068786982,-0.068047337,-0.067307692,-0.066568047,-0.065828402,-0.064349112,-0.062869822,-0.061390533,-0.059171598,-0.055473373,-0.051035503,-0.047337278,-0.042899408,-0.039940828,-0.036242604,-0.034023669,-0.031065089,-0.029585799,-0.028106509,-0.027366864,-0.026627219,-0.025147929,-0.023668639,-0.022189349,-0.020710059,-0.019230769,-0.017751479,-0.017011834,-0.015532544,-0.014792899,-0.014053254,-0.013313609,-0.013313609,-0.014053254,-0.014053254,-0.014053254,-0.014792899,-0.016272189,-0.017011834,-0.018491124,-0.019970414,-0.021449704,-0.022928994,-0.024408284,-0.025887574,-0.027366864,-0.028846154,-0.029585799,-0.031065089,-0.032544379,-0.034023669,-0.035502959,-0.037721893,-0.039201183,-0.041420118,-0.043639053,-0.045118343,-0.046597633,-0.047337278,-0.047337278,-0.046597633,-0.045857988,-0.045118343,-0.043639053,-0.041420118,-0.039201183,-0.037721893,-0.035502959,-0.033284024,-0.020710059,0.012573964,0.071005917,0.163461538,0.292159763,0.453402367,0.63387574,0.809911243,0.943047337,1,0.964497041,0.836538462,0.639053254,0.424556213,0.244822485,0.12943787,0.092455621,0.082100592,0.073224852,0.064349112,0.055473373,0.039201183,0.014792899,-0.008136095,-0.031804734,-0.041420118,-0.045118343,-0.048076923,-0.050295858,-0.052514793,-0.054733728,-0.057692308,-0.059171598,-0.061390533,-0.062130178,-0.062869822,-0.063609467,-0.063609467,-0.063609467,-0.062130178,-0.061390533,-0.059911243,-0.058431953,-0.056952663,-0.054733728,-0.053254438,-0.051775148,-0.049556213,-0.048076923,-0.045118343,-0.042899408,-0.039940828,-0.035502959,-0.029585799,-0.024408284,-0.019230769,-0.014792899,-0.011094675,-0.00591716,-0.000739645,0.005177515,0.01183432,0.017751479,0.022928994,0.030325444,0.040680473,0.051035503,0.060650888,0.068786982,0.078402367,0.088017751,0.102810651,0.124260355,0.141272189,0.153106509,0.164201183,0.174556213,0.184911243,0.195266272,0.199704142,0.203402367,0.206360947,0.208579882,0.210059172,0.210798817,0.210798817,0.210798817,0.209319527,0.207100592,0.204142012,0.200443787,0.195266272,0.188609467,0.174556213,0.163461538,0.148668639,0.13239645,0.116863905,0.099852071,0.080621302,0.063609467,0.047337278,0.033284024,0.019970414,0.008136095,-0.002218935,-0.015532544,-0.027366864,-0.036982249,-0.045857988,-0.051035503,-0.053994083,-0.056213018,-0.058431953,-0.059911243,-0.062130178,-0.064349112,-0.065828402,-0.068047337,-0.069526627,-0.071005917,-0.072485207,-0.073964497,-0.075443787,-0.076923077,-0.078402367,-0.079142012,-0.079881657,-0.080621302,-0.079881657,-0.079881657,-0.078402367,-0.076923077,-0.074704142,-0.071745562,-0.068786982,-0.065828402,-0.061390533,-0.055473373,-0.048816568,-0.044378698,-0.040680473,-0.032544379,-0.021449704,-0.017011834,-0.014792899,-0.013313609,-0.01183432,-0.011094675,-0.01035503,-0.01035503,-0.009615385,-0.009615385,-0.009615385,-0.009615385,-0.01035503,-0.01183432,-0.013313609,-0.014792899,-0.016272189,-0.017751479,-0.018491124,-0.019970414,-0.020710059,-0.021449704,-0.021449704,-0.022189349,-0.022928994,-0.023668639,-0.024408284,-0.025887574,-0.026627219,-0.028106509,-0.029585799,-0.031804734,-0.034023669,-0.036242604,-0.039201183,-0.043639053,-0.051035503,-0.057692308,-0.062869822,-0.068047337,-0.071005917,-0.073964497,-0.076183432,-0.078402367,-0.080621302,-0.082100592,-0.082840237,-0.082840237,-0.082100592,-0.081360947,-0.079881657,-0.078402367,-0.076183432,-0.073964497,-0.068786982,-0.055473373,-0.047337278,-0.043639053,-0.040680473,-0.038461538,-0.036242604,-0.034023669,-0.031804734,-0.029585799,-0.027366864,-0.025887574,-0.025147929,-0.023668639,-0.022189349,-0.020710059,-0.019230769,-0.017011834,-0.015532544,-0.014053254,-0.013313609,-0.012573964,-0.012573964,-0.013313609,-0.014792899,-0.016272189,-0.018491124,-0.020710059,-0.023668639,-0.026627219,-0.029585799,-0.033284024,-0.036982249,-0.039940828,-0.042159763,-0.045118343,-0.048816568,-0.054733728,-0.062869822,-0.067307692,-0.071005917,-0.073964497,-0.071745562,-0.059171598,-0.025147929,0.031065089,0.11464497,0.225591716,0.358727811,0.506656805,0.652366864,0.777366864,0.844674556,0.846153846,0.780325444,0.640532544,0.467455621,0.298076923,0.165680473,0.085798817,0.012573964,0.013313609
