0.000819777,-0.02130473,0.023486059,0.069600397,0.013930754,-0.018239284,0.023802821,0.02549061,0.03760454,0.042484387,0.069676406,0.106635163,0.102048433,0.097321928,0.101016481,0.124582181,0.14291127,0.121612354,0.122943412,0.114516509,0.139982108,0.143603774,0.230855664,0.219636874,0.21678945,0.174548752,0.168216265,0.169265073,0.190466878,0.240915507,0.215859123,0.221921078,0.211617133,0.250630425,0.237163244,0.277099564,0.2610521,0.301233833,0.273290672,0.297078013,0.294870018,0.314569981,0.256745217,0.302469817,0.338908701,0.319132477,0.332853186,0.317712122,0.323905621,0.334692808,0.391860422,0.348610372,0.379625722,0.377399953,0.386951198,0.357553113,0.372155488,0.397622634,0.424955618,0.410266133,0.384839451,0.414782318,0.376856324,0.437718593,0.428135464,0.475774122,0.399324048,0.459151141,0.442878537,0.436737605,0.434876392,0.455010396,0.490868182,0.431717133,0.435180155,0.47185139,0.514190305,0.415074477,0.476174768,0.452128714,0.495905739,0.483842885,0.452051545,0.463353187,0.494743839,0.477027195,0.462047565,0.494379919,0.518938771,0.509030022,0.485220387,0.499916812,0.482503488,0.459799123,0.49083289,0.520698507,0.505332047,0.490153149,0.492189037,0.533377181,0.501727784,0.454613164,0.44423613,0.499880448,0.508137569,0.494221371,0.46629005,0.472088767,0.46144086,0.491379184,0.493619105,0.492353119,0.482160547,0.558437054,0.505090759,0.518330249,0.484924799,0.467263771,0.462130167,0.537722109,0.477680437,0.498134516,0.461973113,0.448070934,0.472186145,0.479651682,0.483744707,0.477505879,0.421008343,0.475098286,0.439362989,0.414264794,0.43944175,0.473451659,0.432240678,0.456373556,0.38955841,0.409045698,0.40109326,0.380747816,0.403846756,0.380978542,0.427151244,0.41229453,0.374266315,0.392177409,0.395275585,0.362648701,0.357723708,0.368872052,0.333875648,0.327046785,0.360539247,0.311111014,0.350982263,0.351272598,0.29036021,0.321447962,0.307356753,0.286986973,0.313627005,0.27696895,0.243115921,0.277233436,0.253026103,0.268473964,0.29878949,0.262734017,0.289147089,0.228622926,0.218747592,0.18905689,0.238972654,0.190127558,0.187683614,0.176019138,0.174552715,0.201713896,0.125798242,0.174762609,0.16457948,0.132118118,0.133608849,0.113537256,0.130271626,0.136222714,0.127552411,0.112723946,0.115769764,0.059120118,0.047410924,0.038683405,0.0948569,0.011070516,0.05172674,0.028322091,0.025761687,0.017389615,0.042828391,0.008372577,-0.00226348,-0.036142022,-0.031000852,0.019011526,-0.032295498,-0.073649426,-0.025775227,-0.057867117,-0.036754217,-0.107408583,-0.050614593,-0.065478127,-0.108631853,-0.092673309,-0.10808218,-0.161658662,-0.124101084,-0.122508935,-0.179310119,-0.174202303,-0.153988511,-0.127712117,-0.18602186,-0.153215784,-0.185333002,-0.200709607,-0.19917866,-0.171247014,-0.20266645,-0.222901854,-0.282342369,-0.236148541,-0.250014894,-0.257793094,-0.229855929,-0.288991342,-0.286016219,-0.25970732,-0.321847423,-0.256164675,-0.318999279,-0.327553337,-0.298429248,-0.289746693,-0.312717415,-0.328690216,-0.331480927,-0.358911574,-0.359681855,-0.371184569,-0.367001444,-0.342885918,-0.394104484,-0.355001769,-0.391076684,-0.397136179,-0.40868223,-0.395423343,-0.383223528,-0.392521357,-0.387630875,-0.377381859,-0.388185223,-0.439865613,-0.452719251,-0.428467709,-0.43187171,-0.429660013,-0.424182761,-0.441639684,-0.435697637,-0.452714495,-0.475393843,-0.41011003,-0.493588869,-0.444933672,-0.428595559,-0.477611348,-0.487096025,-0.436288292,-0.507396918,-0.472869479,-0.493011219,-0.466564382,-0.481358861,-0.441358121,-0.539118452,-0.513457175,-0.510443282,-0.532125537,-0.526539234,-0.509255639,-0.490797259,-0.531187984,-0.457688695,-0.521252126,-0.467925366,-0.476341264,-0.520477086,-0.479611857,-0.54926814,-0.439864513,-0.480198966,-0.470377989,-0.483131546,-0.497117917,-0.532301907,-0.471799738,-0.483120786,-0.49327722,-0.52420234,-0.537310861,-0.437707158,-0.502350497,-0.445012975,-0.497387476,-0.472158175,-0.487870196,-0.46359922,-0.500233388,-0.545331856,-0.468077102,-0.468880892,-0.483477085,-0.495622945,-0.498752951,-0.433302441,-0.468074839,-0.453568787,-0.46623041,-0.430402429,-0.469623757,-0.443173548,-0.411122431,-0.450050977,-0.420255243,-0.432613906,-0.39973616,-0.451115488,-0.410038502,-0.388032325,-0.382618717,-0.415593769,-0.409213993,-0.379337108,-0.395993107,-0.339328079,-0.34177392,-0.378980598,-0.348108728,-0.339904508,-0.305755221,-0.308114322,-0.353755986,-0.326383719,-0.309607426,-0.277388587,-0.333234388,-0.337275235,-0.276126744,-0.29512754,-0.270074489,-0.299116194,-0.293468634,-0.299517007,-0.31292023,-0.220988207,-0.216021142,-0.247913417,-0.238978924,-0.228228662,-0.196574862,-0.225113969,-0.219170807,-0.217957431,-0.227297848,-0.17100188,-0.16725171,-0.159374804,-0.16671007,-0.172091779,-0.108495274,-0.143648424,-0.123977887,-0.092283918,-0.128718499,-0.076291912,-0.086008631,-0.112348193,-0.054728306,-0.059934989,-0.016021786,-0.058403264,-0.046321348,-0.051508163,-0.017412594,-0.010463857,-0.049799808,-0.043120745,-0.019580896,0.006333961,0.043735448,0.000884721,0.09228136,0.075403811,0.098962562,-0.006163206,0.050782336,0.057959701,0.060554213,0.102634696,0.104555211,0.057390931,0.088127064,0.136142106,0.077760013,0.131397235,0.152219805,0.142233225,0.150868577,0.146436064,0.186151514,0.211428791,0.187317228,0.203298269,0.21711197,0.198272951,0.214725385,0.23551513,0.185127944,0.238286786,0.244544814,0.248250667,0.306007368,0.285242007,0.260488821,0.281136708,0.32213088,0.281966328,0.328407492,0.328703613,0.324290671,0.355276339,0.351577268,0.333449124,0.349406014,0.332342039,0.343747962,0.350339762,0.349784319,0.332198959,0.357056646,0.380138811,0.376593116,0.37823619,0.386582364,0.369948495,0.426899555,0.339082685,0.37968998,0.471550254,0.397498494,0.436871013,0.47072394,0.45517227,0.415243811,0.422908749,0.473462838,0.416063894,0.441428185,0.41266789,0.472818749,0.461733702,0.514067839,0.467363105,0.424417108,0.471350562,0.458648225,0.497766932,0.486156811,0.475751688,0.480162009,0.454910287,0.47812442,0.500638875,0.51167047,0.504542318,0.490368903,0.497385239,0.515821253,0.483823064,0.483158911,0.543933309,0.515279302,0.521954372,0.464594236,0.462589868,0.475532676,0.481754167,0.500416828,0.478214153,0.522703859,0.505692534,0.484690247,0.512245629,0.501357698,0.495170957,0.474889229,0.473492391,0.441340812,0.493451499,0.496398571,0.495480239,0.494468442,0.49056749,0.467200566,0.494747849,0.507592851,0.498236187,0.523136179,0.447893682,0.468408132,0.442181022,0.440453312,0.514007598,0.477998253,0.473867639,0.444079748,0.445597281,0.447961828,0.426210683,0.431129158,0.422587247,0.463637007,0.433290157,0.447089347,0.414234362,0.438355277,0.423021101,0.416321702,0.361364288,0.411332886,0.39324806,0.355592156,0.363854889,0.349024208,0.384939325,0.287413595,0.381542605,0.333256993,0.364370874,0.314505736,0.331832819,0.332017164,0.292139664,0.345510905,0.338697262,0.331721028,0.290133598,0.31762355,0.31050815,0.278851925,0.265840688,0.314238807,0.262763516,0.227041722,0.243714661,0.239578569,0.225115757,0.218698226,0.20427048,0.240856375,0.203344065,0.189410043,0.198974361,0.204140792,0.151616912,0.18142898,0.139063679,0.172603216,0.142268407,0.170992532,0.175468973,0.100319908,0.153304222,0.110475078,0.097166739,0.070142074,0.08709532,0.06876679,0.072956482,0.060540035,0.040062231,0.033948709,0.035414318,0.024778067,0.027342713,0.055821087,0.017772145,0.008370616,-0.012500734,0.018562934,0.020882294,-0.041645081,-0.036909637,-0.041141673,-0.044471421,-0.009069456,-0.06329408,-0.097461046,-0.052452421,-0.080379171,-0.099085295,-0.086755826,-0.1410742,-0.084711402,-0.155374658,-0.134778057,-0.19930044,-0.168474332,-0.183926606,-0.188276604,-0.155889037,-0.162662155,-0.201584682,-0.19581123,-0.239862189,-0.217877291,-0.214238913,-0.261624323,-0.203428519,-0.248829911,-0.271764648,-0.217145402,-0.294592806,-0.243174596,-0.254689023,-0.253958142,-0.276508756,-0.338216248,-0.334667025,-0.330199891,-0.341464504,-0.289079976,-0.33499263,-0.327521223,-0.326731915,-0.317498631,-0.372044347,-0.379823024,-0.345069042,-0.357158289,-0.380703701,-0.398178849,-0.327694739,-0.344137834,-0.392510476,-0.407898456,-0.360997021,-0.431612323,-0.398605818,-0.418589089,-0.391648004,-0.418184855,-0.457654153,-0.432072522,-0.408817094,-0.402238879,-0.462023475,-0.460563188,-0.454644563,-0.426484895,-0.469789009,-0.497084729,-0.479836328,-0.428051095,-0.473742613,-0.445911362,-0.465277956,-0.459488423,-0.434796636,-0.464407365,-0.479147547,-0.486956143,-0.456538008,-0.501992752,-0.477028051,-0.489373071,-0.516469313,-0.517613486,-0.497004732,-0.483249638,-0.545800347,-0.543639782,-0.463781229,-0.539185522,-0.486171716,-0.51103753,-0.500092932,-0.481138119,-0.498461612,-0.479834002,-0.479894251,-0.535097251,-0.490612144,-0.51112045,-0.47173345,-0.444140143,-0.466069943,-0.521631358,-0.493168824,-0.496254374,-0.465456356,-0.5008981,-0.480832373,-0.483188845,-0.519357259,-0.484046501,-0.457656792,-0.450584667,-0.497714159,-0.533256906,-0.426000322,-0.444569704,-0.485252355,-0.462968416,-0.499188354,-0.450477109,-0.422799579,-0.441222458,-0.426453621,-0.438475467,-0.458657511,-0.402430746,-0.45316867,-0.424701506,-0.431995817,-0.41409123,-0.384385386,-0.413306178,-0.398723096,-0.409606583,-0.385828727,-0.388355573,-0.42101671,-0.333951095,-0.382533395,-0.393909831,-0.400013327,-0.365335812,-0.343897091,-0.334910399,-0.311635725,-0.33303101,-0.319233055,-0.291415191,-0.301975708,-0.335625812,-0.275759334,-0.30127662,-0.228873608,-0.274702787,-0.274190354,-0.247028024,-0.2807312,-0.299156773,-0.245471583,-0.268397962,-0.237229623,-0.169930352,-0.207461944,-0.219859841,-0.183937045,-0.221225034,-0.15049246,-0.192518631,-0.198218305,-0.163013922,-0.204098858,-0.139096333,-0.14916154,-0.156641554,-0.147201512,-0.144109981,-0.129203634,-0.130081085,-0.073542305,-0.113260209,-0.108684175,-0.082365381,-0.066759036,-0.041225342,-0.06424933,-0.066916923,-0.053046645,0.013566392,-0.001795736,-0.017164383,-0.020061425,0.015848393,0.003745495,0.01830715,0.033495722,0.0619545,0.053608618,0.040409493,0.005351305,0.057910846,0.058136593,0.086445983,0.129390565,0.069524373,0.105712098,0.145379735,0.107841716,0.126152412,0.126185432,0.118437981,0.140860668,0.152841875,0.161104275,0.141240091,0.170693422,0.160652537,0.181589033,0.222492614,0.216396503,0.235752814,0.189458149,0.214691824,0.266983177,0.21735641,0.206551269,0.265935979,0.256379207,0.255763752,0.2650122,0.252048171,0.287182277,0.299837657,0.276154979,0.298137519,0.294540002,0.285533433,0.355914194,0.315529227,0.343774518,0.368059883,0.321420496,0.337557208,0.384839151,0.344785086,0.396063466,0.374502485,0.336301414,0.383681028,0.338659808,0.393964381,0.382464723,0.406946053,0.385064856,0.367638839,0.406348632,0.440364065,0.43295419,0.427932213,0.386932344,0.42452698,0.454797456,0.447435674,0.459347134,0.452666911,0.474100102,0.492749254,0.470777254,0.450645226,0.482132145,0.430546611,0.418561,0.466675894,0.448753801,0.509893335,0.523379598,0.446598234,0.462527938,0.424426549,0.476372795,0.45632326,0.503938021,0.482227557,0.505379066,0.491501249,0.463686389,0.461948831,0.518709506,0.536339145,0.438906302,0.48198069,0.524410804,0.462453261,0.465864513,0.477431291,0.496651105,0.486138735,0.53919074,0.514845723,0.539932052,0.530132903,0.491119204,0.461811275,0.473655033,0.478750001,0.515588217,0.440809484,0.479555451,0.470118202,0.509204833,0.491602246,0.495180494,0.49279985,0.422795955,0.52530757,0.498024756,0.46799593,0.452330457,0.437820831,0.468730632,0.500947838,0.425464863,0.426958966,0.426878723,0.44135661,0.440176525,0.450611299,0.355571985,0.405027106,0.416149655,0.40031767,0.41173214,0.424228394,0.344627106,0.382691822,0.379137428,0.393832177,0.373263287,0.411307694,0.398345398,0.343351997,0.402011084,0.359807612,0.345972922,0.318006593,0.341205721,0.345948697,0.290627504,0.303610329,0.342429465,0.328244053,0.313480613,0.313812622,0.334765794,0.310601128,0.270755705,0.269130733,0.236755347,0.249997051,0.251943081,0.248914179,0.228208579,0.198550318,0.171665663,0.192609506,0.187140314,0.166220261,0.192629317,0.19838182,0.147901027,0.188007117,0.162665497,0.133136929,0.11717105,0.180865897,0.110666208,0.092370973,0.126751535,0.097528936,0.106391443,0.052124689,0.047733303,-0.00545352,0.057984668,0.095091344,0.037269624,0.070298162,0.005977007,0.046883815,-0.000428099,0.038857431,0.014725227,-0.076831476,0.010937255,-0.010623172,0.003136403,-0.063675081,-0.031453216,-0.0125752,-0.01328868,-0.078814689,-0.076790137,-0.114619095,-0.055567126,-0.06858326,-0.081278958,-0.104070234,-0.120315144,-0.115421324,-0.092295825,-0.13087303,-0.132047388,-0.112677829,-0.143101523,-0.206635643,-0.192997421,-0.201720333,-0.185254188,-0.218587769,-0.216980593,-0.205379165,-0.231185455,-0.211882025,-0.225138026,-0.261993034,-0.235559827,-0.27909619,-0.311889976,-0.250904699,-0.305543163,-0.279376625,-0.323509916,-0.258128014,-0.321194792,-0.336699884,-0.30948951,-0.315101817,-0.35873316,-0.346120787,-0.306482104,-0.354231527,-0.302822519,-0.36722815,-0.365599974,-0.377762117,-0.373142847,-0.377253483,-0.351417146,-0.429811505,-0.342264997,-0.388747014,-0.432807247,-0.355078843,-0.393858848,-0.382578248,-0.35721498,-0.46399858,-0.452294442,-0.377352714,-0.481071508,-0.4450177,-0.407716322,-0.409169068,-0.429785136,-0.485966435,-0.441787564,-0.474729191,-0.438351633,-0.447690142,-0.423858973,-0.447461621,-0.431097119,-0.492168602,-0.469897545,-0.487808271,-0.490974191,-0.507658984,-0.471963722,-0.489428731,-0.499502268,-0.523623584,-0.490083815,-0.515764758,-0.490609914,-0.499925345,-0.471225655,-0.529318057,-0.504322667,-0.453540548,-0.522894967,-0.49797916,-0.493685928,-0.524347723,-0.526429278,-0.526445349,-0.532419503,-0.431425845,-0.516939471,-0.49967438,-0.462157916,-0.476191967,-0.458013984,-0.485479679,-0.502359453,-0.477000337,-0.54028412,-0.435267043,-0.478033861,-0.491158995,-0.497435678,-0.488593057,-0.514426473,-0.477936122,-0.496915986,-0.481744676,-0.462865901,-0.458903146,-0.440996513,-0.444273097,-0.434890151,-0.471072447,-0.419036083,-0.465962153,-0.455036986,-0.428112382,-0.417272174,-0.415253972,-0.476544329,-0.464665113,-0.402516326,-0.386563671,-0.422572457,-0.402111003,-0.406985574,-0.429218312,-0.354670073,-0.383549683,-0.357494,-0.39429966,-0.401829687,-0.388943664,-0.322603863,-0.3469632,-0.340585123,-0.333879963,-0.370426011,-0.285491859,-0.349022202,-0.322964309,-0.256433036,-0.29022517,-0.295456951,-0.306606491,-0.33012683,-0.30819636,-0.278667223,-0.23786549,-0.241527479,-0.24741336,-0.292306247,-0.227393692,-0.210175755,-0.249641398,-0.236604097,-0.223928591,-0.195995501,-0.201432089,-0.204004546,-0.235912765,-0.140726997,-0.189359763,-0.138811107,-0.135000553,-0.131062917,-0.156789184,-0.135811497,-0.139798329,-0.135886001,-0.05712645,-0.114380321,-0.031563229,-0.090785109,-0.059947348,-0.077348372,-0.047446528,-0.067118437,-0.052540616,-0.050351745,-0.060955479,0.021653779,-0.018886997,0.003883472,-0.005381909,-0.00449963,0.010868057,0.028192792,0.009889074,0.061289921,0.065166853,0.048910464,0.043456579,0.100369169,0.106912268,0.086033214,0.115400492,0.087874979,0.11252948,0.105970084,0.093510975,0.166483365,0.172076123,0.169755582,0.18076901,0.215642321,0.201304487,0.184186173,0.188716498,0.209279299,0.226448401,0.213792249,0.188659755,0.212259013,0.195286992,0.191721276,0.252911298,0.249851209,0.23864437,0.272650799,0.226780257,0.295507341,0.287134161,0.233151421,0.291029088,0.298070062,0.317984558,0.350272698,0.340243012,0.280524021,0.310880465,0.333013783,0.29515993,0.340693049,0.370344192,0.307544533,0.33582457,0.377361618,0.370678644,0.39942999,0.412951671,0.365819926,0.42280768,0.405724342,0.396137833,0.411722853,0.403357488,0.395363054,0.401152842,0.48373684,0.418094474,0.471902629,0.417791858,0.417778684,0.459049346,0.413970183,0.441780877,0.466858419,0.440767531,0.437350188,0.462030527,0.463468411,0.489973692,0.440860278,0.538707685,0.49559165,0.429464266,0.467953661,0.495860658,0.529622996,0.505794556,0.480506859,0.485860124,0.470743236,0.484391206,0.480063,0.505313624,0.520321198,0.498146749,0.525642294,0.484091917,0.506230023,0.511665547,0.512478539,0.519502142,0.507558902,0.499848926,0.497209181,0.484296864,0.463087404,0.48469667,0.491248179,0.505722892,0.501756964,0.441463034,0.48871006,0.454768177,0.511042659,0.479259039,0.482934264,0.504928564,0.475048119,0.470782868,0.521344759,0.484729753,0.476192104,0.489954553,0.447949824,0.484386717,0.446118404,0.464982169,0.476440681,0.510152212,0.44122711,0.453181393,0.492776024,0.430291412,0.436415259,0.412723265,0.437591783,0.42550597,0.425801171,0.412432029,0.398648544,0.422521477,0.440134316,0.397442061,0.37655257,0.365124582,0.378944276,0.370130706,0.365198699,0.387636982,0.365886243,0.395353868,0.334364326,0.327938488,0.306890857,0.350772567,0.322723383,0.350177905,0.229425309,0.332167393,0.284544187,0.342607859,0.291972547,0.272134197,0.284872971,0.279738468,0.219523566,0.220963793,0.241959065,0.242916358,0.204357111,0.206556174,0.20908376,0.227571089,0.24170382,0.196995668,0.219336832,0.15083207,0.194715518,0.18388898,0.189209372,0.16924839,0.178902233,0.095377642,0.128877671,0.152956738,0.102887052,0.116234786,0.079104042,0.041376333,0.073313431,0.114231467,0.028478009,0.07484665,0.085545198,0.046140936,0.048346304,0.019016359,-0.034006295,-0.049045947,0.041387901,-0.023852259,-0.024242666,-0.01306861,-0.038707541,-0.060530468,-0.065613531,-0.048317051,-0.044201153,-0.041672063,-0.094396567,-0.048892385,-0.09786758,-0.075601062,-0.112460785,-0.090059894,-0.12759853,-0.11309712,-0.153057919,-0.150163235,-0.136924425,-0.180853486,-0.164352597,-0.155714372,-0.218741764,-0.183143522,-0.153978319,-0.201555471,-0.247860222,-0.204528534,-0.183550817,-0.243606611,-0.214227469,-0.24475895,-0.291510984,-0.212127625,-0.271616107,-0.283366228,-0.292642771,-0.280508098,-0.260033415,-0.290259459,-0.309876302,-0.286206482,-0.333261578,-0.35108743,-0.346791959,-0.333956476,-0.360124234,-0.335760232,-0.319799016,-0.319706187,-0.400046227,-0.380424296,-0.361624921,-0.406242728,-0.391914782,-0.410723688,-0.387379062,-0.40703066,-0.415037672,-0.420288258,-0.39218589,-0.394837389,-0.409754211,-0.420645878,-0.44603569,-0.39924304,-0.469261569,-0.455433108,-0.451762537,-0.436721678,-0.434318884,-0.450875228,-0.491262335,-0.423429672,-0.495938508,-0.445923282,-0.406900132,-0.481307988,-0.494123444,-0.459667303,-0.432833965,-0.51254364,-0.513996168,-0.512613084,-0.475743165,-0.461755644,-0.489646755,-0.519534139,-0.471133944,-0.503897165,-0.544770387,-0.549009705,-0.508636094,-0.481324199,-0.486135192,-0.474886875,-0.475960987,-0.532182755,-0.496469705,-0.465882824,-0.531933058,-0.525379677,-0.485059555,-0.493073445,-0.521617261,-0.495376568,-0.49874727,-0.511305313,-0.506346667,-0.510799252,-0.485634972,-0.470948284,-0.476537894,-0.482496455,-0.483223702,-0.475261147,-0.490864063,-0.460686156,-0.4966625,-0.478190268,-0.51314034,-0.467528562,-0.486316358,-0.43539195,-0.435612435,-0.504501461,-0.468285506,-0.456984234,-0.467069101,-0.446484437,-0.413046853,-0.442250168,-0.429649416,-0.485415239,-0.437468198,-0.442971839,-0.3741472,-0.411140347,-0.394855729,-0.378458524,-0.397177253,-0.35582001,-0.369716265,-0.3640351,-0.386011072,-0.403814643,-0.352447048,-0.385549598,-0.358988531,-0.349925504,-0.385856163,-0.352016113,-0.328424263,-0.353681898,-0.320739067,-0.2960705,-0.345896479,-0.288957995,-0.275665093,-0.259439349,-0.306148364,-0.286083448,-0.286682016,-0.283936298,-0.226340774,-0.254975759,-0.260097229,-0.259442515,-0.219235486,-0.210900412,-0.178385112,-0.172689757,-0.212054777,-0.202346759,-0.192547896,-0.155265057,-0.198927484,-0.201977672,-0.177589354,-0.119169246,-0.188542081,-0.111334676,-0.118251431,-0.065365864,-0.128452174,-0.104354334,-0.078700673,-0.090643113,-0.137363257,-0.072174995,-0.050841248,-0.057879928,-0.089734626,0.018694897,-0.045377251,-0.068747644,-0.039394888,-0.001754318,0.021426883,-0.006512565,-0.020457459,0.072311019,-0.011134974,0.031506137,0.056508643,0.090572857,0.049942845,0.086070368,0.071748381,0.130832243,0.099228636,0.108407729,0.111427512,0.146309569,0.145886211,0.102895074,0.107558945,0.123429809,0.178122938,0.195771935,0.15931783,0.195278448,0.174366057,0.205615364,0.172914409,0.200356654,0.234591729,0.278824008,0.24399581,0.23977789,0.246263164,0.254098381,0.224293957,0.269762614,0.270660132,0.24079329,0.289426258,0.251682263,0.300803119,0.317504225,0.337697832,0.321829456,0.285721444,0.330026191,0.348831045,0.309111583,0.371899325,0.334324985,0.375832453,0.398305521,0.374649778,0.416820163,0.401579856,0.371920364,0.418767763,0.372098516,0.431449576,0.365666467,0.418769784,0.414513537,0.42648501,0.437919738,0.433898116,0.412890141,0.467604411,0.42410753,0.458533465,0.429805764,0.462511537,0.412988159,0.47509487,0.454147163,0.423078806,0.472537401,0.464168811,0.484244426,0.502629587,0.462751832,0.456861578,0.463890476,0.494138197,0.475147597,0.445426275,0.454967666,0.440403735,0.505685945,0.464066212,0.467217034,0.504445394,0.461504626,0.471474018,0.493278762,0.464337218,0.477465921,0.542716715,0.485600856,0.489315085,0.49554992,0.486276963,0.53447455,0.503064458,0.503808608,0.525602663,0.483669441,0.458757592,0.497515453,0.499931644,0.469820053,0.484678874,0.498479637,0.497659144,0.487931647,0.523394151,0.462396338,0.440621585,0.514562462,0.441212635,0.494630495,0.518451982,0.453033585,0.47048542,0.502096384,0.502286257,0.437185436,0.510048489,0.45724187,0.43138283,0.468076664,0.418216931,0.447021277,0.431034435,0.447842074,0.45898594,0.420525821,0.411993547,0.424588109,0.384486902,0.469326199,0.373797955,0.410796362,0.371000314,0.375333552,0.43235649,0.369849815,0.409247057,0.36633773,0.375509617,0.391515151,0.336294215,0.33325364,0.363582437,0.376188354,0.365125513,0.329044265,0.36861025,0.323096929,0.337838917,0.334476226,0.238348965,0.290799098,0.255031286,0.261538373,0.254124747,0.255408883,0.261819231,0.266332129,0.227671532,0.18501101,0.235737465,0.241347924,0.252521745,0.211501896,0.19934114,0.211095615,0.197244987,0.178925999,0.170797002,0.182133724,0.151710087,0.167384217,0.155307923,0.150258338,0.133492112,0.140050105,0.142792337,0.118484596,0.083174194,0.072299845,0.059792164,0.086641818,0.081356363,0.055899002,0.080231903,0.041693422,0.032593276,-0.037990672,-0.000778237,0.053776087,-0.014625063,0.010588587,-0.010200291,-0.010452539,-0.059444896,-0.02880508,-0.046217693,-0.085788832,-0.043518734,-0.058248594,-0.130351614,-0.069668948,-0.107771916,-0.134595937,-0.103469851,-0.13596494,-0.099919304,-0.11450396,-0.112058445,-0.105891742,-0.139323393,-0.155336993,-0.115290902,-0.17438781,-0.194594031,-0.228990556,-0.197852166,-0.207215039,-0.208532468,-0.186793837,-0.277178947,-0.230279704,-0.254024797,-0.270966848,-0.233041841,-0.241391555,-0.235428562,-0.257888926,-0.236016372,-0.288136572,-0.326431466,-0.326790685,-0.31424888,-0.328039358,-0.305800061,-0.343763338,-0.373929862,-0.322552798,-0.338406111,-0.329001041,-0.327182858,-0.374009364,-0.378313093,-0.38479046,-0.328737169,-0.38030474,-0.425236584,-0.432648135,-0.391379932,-0.397889921,-0.427475682,-0.387116204,-0.382619572,-0.381380253,-0.418075597,-0.430070529,-0.470453137,-0.484463315,-0.43410675,-0.418734286,-0.499757021,-0.42636648,-0.432370414,-0.472068381,-0.442195663,-0.470053802,-0.459662389,-0.454758436,-0.480404585,-0.466364227,-0.48666819,-0.413968109,-0.453641441,-0.469380571,-0.464927015,-0.468167787,-0.458811261,-0.493417922,-0.50876113,-0.560160864,-0.474959659,-0.464329374,-0.52643321,-0.491110893,-0.502743857,-0.503628145,-0.496404242,-0.514279457,-0.454364642,-0.48876113,-0.574441234,-0.485785365,-0.460194394,-0.498661954,-0.490285201,-0.488226828,-0.510333591,-0.465601628,-0.485548574,-0.539502011,-0.492719956,-0.469567978,-0.521171227,-0.481308686,-0.476882193,-0.489647598,-0.446256762,-0.456995131,-0.513409466,-0.452307011,-0.467118566,-0.446376518,-0.485242382,-0.438951923,-0.488749869,-0.457789292,-0.452722364,-0.480383693,-0.476041391,-0.44686222,-0.423818527,-0.449502709,-0.448870068,-0.442752249,-0.380614342,-0.39717749,-0.422515355,-0.419309569,-0.450559537,-0.468761298,-0.419309504,-0.383615924,-0.361990635,-0.386406866,-0.403890338,-0.381366889,-0.398977388,-0.404868669,-0.34207167,-0.372386795,-0.363958258,-0.370691786,-0.327534453,-0.341997792,-0.354096727,-0.281911972,-0.302447464,-0.338020359,-0.304709411,-0.293404074,-0.29754724,-0.257010475,-0.275123617,-0.29900454,-0.285221096,-0.251536034,-0.257560443,-0.257583858,-0.217552452,-0.22137701,-0.21900343,-0.22725556,-0.229256644,-0.179620412,-0.211256993,-0.175211102,-0.207361553,-0.176430898,-0.174021174,-0.125351868,-0.195047596,-0.126854231,-0.166997556,-0.150659978,-0.158722709,-0.09148073,-0.105831115,-0.097209859,-0.073408541,-0.049636816,-0.004458543,-0.057616994,-0.097569184,-0.099598444,-0.063483755,-0.04977405,-0.039383807,-0.016056785,-0.034787341,0.010634774,-0.021257042
